0.163
0.175
0.18
0.18
0.17
0.168
0.175
0.19
0.188
0.17
0.15
0.147
0.147
0.158
0.168
0.188
0.19
0.207
0.215
0.233
0.247
0.273
0.3
0.338
0.37
0.385
0.375
0.357
0.345
0.343
0.33
0.31
0.28
0.24
0.168
0.072
0
-0.065
-0.098
-0.117
-0.125
-0.138
-0.147
-0.147
-0.147
-0.138
-0.13
-0.125
-0.122
-0.117
-0.115
-0.115
-0.105
-0.098
-0.085
-0.077
-0.065
-0.045
-0.025
0
-0.018
0
0.005
0.013
0.007
0.025
0.05
0.098
0.182
0.343
0.573
0.853
1.123
1.337
1.48
1.577
1.62
1.593
1.49
1.37
1.222
1.04
0.805
0.537
0.305
0.18
0.125
0.05
-0.085
-0.245
-0.383
-0.495
-0.613
-0.723
-0.767
-0.748
-0.695
-0.655
-0.625
-0.613
-0.603
-0.598
-0.593
-0.593
-0.59
-0.585
-0.585
-0.578
-0.57
-0.557
-0.54
-0.512
-0.487
-0.46
-0.43
-0.385
-0.35
-0.312
-0.273
-0.233
-0.188
-0.147
-0.11
-0.083
-0.05
0
0.028
0.05
0.07
0.09
0.105
0.117
0.13
0.138
0.138
0.138
0.147
0.155
0.163
0.163
0.163
0.158
0.147
0.125
0.122
0.125
0.138
0.15
0.175
0.2
0.228
0.245
0.255
0.278
0.312
0.345
0.37
0.383
0.37
0.343
0.31
0.287
0.278
0.265
0.228
0.175
0.092
0.007
-0.07
-0.11
-0.135
-0.155
-0.18
-0.2
-0.203
-0.2
-0.2
-0.188
-0.18
-0.175
-0.175
-0.175
-0.17
-0.168
-0.163
-0.168
-0.168
-0.168
-0.168
-0.175
-0.168
-0.155
-0.138
-0.125
-0.115
-0.105
-0.098
-0.092
-0.072
-0.033
0.052
0.19
0.398
0.675
0.96
1.175
1.312
1.397
1.448
1.423
1.312
1.19
1.067
0.922
0.72
0.472
0.235
0.092
0.018
-0.065
-0.182
-0.325
-0.472
-0.59
-0.69
-0.78
-0.825
-0.818
-0.775
-0.748
-0.72
-0.695
-0.69
-0.715
-0.743
-0.76
-0.752
-0.735
-0.735
-0.78
-0.812
-0.83
-0.838
-0.8
-0.723
-0.675
-0.667
-0.682
-0.695
-0.675
-0.59
-0.495
-0.44
-0.41
-0.395
-0.362
-0.318
-0.278
-0.235
-0.223
-0.22
-0.182
-0.138
-0.13
-0.155
-0.147
-0.163
-0.18
-0.17
-0.13
-0.09
-0.065
-0.06
-0.065
-0.077
-0.065
-0.037
-0.045
-0.06
-0.077
-0.11
-0.138
-0.175
-0.24
-0.305
-0.338
-0.285
-0.175
-0.06
0.013
0.007
-0.025
-0.028
-0.018
-0.06
-0.163
-0.268
-0.352
-0.417
-0.45
-0.468
-0.505
-0.532
-0.527
-0.495
-0.487
-0.507
-0.527
-0.537
-0.527
-0.515
-0.487
-0.45
-0.415
-0.403
-0.398
-0.415
-0.43
-0.443
-0.398
-0.325
-0.268
-0.265
-0.273
-0.285
-0.287
-0.268
-0.235
-0.215
-0.2
-0.17
-0.115
-0.04
0.098
0.287
0.547
0.818
1.008
1.13
1.22
1.268
1.23
1.137
1.048
0.97
0.873
0.74
0.54
0.318
0.147
0.013
-0.138
-0.3
-0.45
-0.57
-0.645
-0.71
-0.765
-0.785
-0.775
-0.752
-0.703
-0.67
-0.65
-0.635
-0.61
-0.59
-0.56
-0.552
-0.552
-0.557
-0.557
-0.552
-0.537
-0.512
-0.492
-0.46
-0.41
-0.352
-0.31
-0.273
-0.245
-0.215
-0.175
-0.122
-0.072
-0.025
0.025
0.05
0.072
0.105
0.142
0.175
0.19
0.203
0.207
0.22
0.228
0.228
0.228
0.235
0.233
0.233
0.235
0.233
0.22
0.207
0.212
0.223
0.245
0.26
0.287
0.318
0.35
0.365
0.383
0.398
0.43
0.46
0.482
0.48
0.46
0.422
0.407
0.395
0.39
0.362
0.31
0.233
0.138
0.05
-0.033
-0.07
-0.085
-0.09
-0.092
-0.098
-0.105
-0.117
-0.13
-0.125
-0.117
-0.105
-0.102
-0.092
-0.085
-0.077
-0.077
-0.083
-0.077
-0.072
-0.072
-0.065
-0.04
-0.025
0
0
0.005
0.007
0.02
0.033
0.052
0.06
0.085
0.13
0.212
0.35
0.565
0.825
1.09
1.317
1.462
1.535
1.593
1.585
1.5
1.377
1.24
1.067
0.873
0.635
0.357
0.142
-0.018
-0.135
-0.247
-0.37
-0.495
-0.59
-0.67
-0.755
-0.797
-0.748
-0.65
-0.525
-0.422
-0.398
-0.427
-0.46
-0.482
-0.512
-0.532
-0.512
-0.46
-0.41
-0.362
-0.325
-0.312
-0.31
-0.305
-0.32
-0.333
-0.32
-0.278
-0.228
-0.163
-0.115
-0.09
-0.06
0.007
0.083
0.168
0.223
0.247
0.245
0.233
0.22
0.223
0.228
0.228
0.223
0.233
0.273
0.31
0.33
0.318
0.292
0.265
0.235
0.207
0.195
0.203
0.223
0.235
0.245
0.265
0.297
0.318
0.343
0.35
0.362
0.398
0.43
0.443
0.422
0.375
0.32
0.278
0.233
0.155
0.07
-0.02
-0.09
-0.135
-0.17
-0.19
-0.207
-0.228
-0.255
-0.278
-0.287
-0.31
-0.31
-0.265
-0.223
-0.215
-0.228
-0.212
-0.175
-0.135
-0.125
-0.13
-0.122
-0.083
-0.02
0.02
0.007
-0.05
-0.077
-0.098
-0.098
-0.098
-0.09
-0.072
-0.058
-0.033
0
0
0.028
0.122
0.312
0.57
0.853
1.123
1.308
1.403
1.448
1.442
1.373
1.268
1.143
1.008
0.825
0.603
0.357
0.168
0.05
-0.058
-0.188
-0.352
-0.5
-0.598
-0.667
-0.71
-0.733
-0.71
-0.667
-0.623
-0.593
-0.593
-0.598
-0.593
-0.578
-0.57
-0.557
-0.552
-0.552
-0.56
-0.56
-0.547
-0.512
-0.472
-0.422
-0.395
-0.375
-0.352
-0.318
-0.273
-0.215
-0.155
-0.115
-0.077
-0.05
0
0.04
0.09
0.125
0.168
0.2
0.207
0.207
0.228
0.24
0.24
0.235
0.245
0.245
0.247
0.253
0.255
0.255
0.268
0.265
0.253
0.228
0.22
0.22
0.22
0.245
0.28
0.297
0.312
0.343
0.362
0.365
0.395
0.44
0.45
0.44
0.417
0.41
0.415
0.427
0.415
0.375
0.338
0.287
0.223
0.142
0.06
0
-0.065
-0.138
-0.233
-0.318
-0.375
-0.395
-0.375
-0.352
-0.33
-0.3
-0.265
-0.26
-0.268
-0.268
-0.26
-0.253
-0.26
-0.297
-0.32
-0.297
-0.26
-0.26
-0.253
-0.203
-0.147
-0.09
-0.09
-0.158
-0.188
-0.158
-0.115
-0.04
0.092
0.268
0.482
0.765
1.048
1.268
1.405
1.522
1.585
1.54
1.488
1.45
1.345
1.097
0.733
0.343
0.028
-0.158
-0.228
-0.318
-0.475
-0.682
-0.818
-0.84
-0.812
-0.787
-0.775
-0.787
-0.805
-0.797
-0.728
-0.655
-0.65
-0.682
-0.74
-0.805
-0.8
-0.765
-0.74
-0.735
-0.735
-0.695
-0.603
-0.532
-0.505
-0.495
-0.507
-0.532
-0.515
-0.463
-0.378
-0.28
-0.215
-0.207
-0.22
-0.195
-0.168
-0.138
-0.09
-0.028
0.045
0.083
0.06
0.033
0.018
0.065
0.098
0.098
0.06
0.037
0.052
0.122
0.15
0.117
0.07
0.018
-0.033
-0.065
-0.092
-0.098
-0.058
0.02
0.11
0.142
0.168
0.163
0.158
0.155
0.188
0.215
0.233
0.182
0.115
0.065
0.105
0.163
0.18
0.138
0.007
-0.122
-0.223
-0.3
-0.31
-0.26
-0.24
-0.297
-0.352
-0.375
-0.39
-0.385
-0.383
-0.383
-0.365
-0.292
-0.233
-0.233
-0.278
-0.32
-0.318
-0.265
-0.207
-0.163
-0.155
-0.175
-0.203
-0.215
-0.207
-0.182
-0.15
-0.115
-0.115
-0.138
-0.115
-0.06
0.045
0.235
0.472
0.715
0.96
1.157
1.317
1.45
1.565
1.577
1.47
1.365
1.3
1.198
1.002
0.728
0.46
0.278
0.17
0.065
-0.13
-0.37
-0.57
-0.655
-0.657
-0.635
-0.625
-0.63
-0.642
-0.645
-0.67
-0.715
-0.723
-0.688
-0.63
-0.57
-0.52
-0.495
-0.507
-0.515
-0.48
-0.44
-0.41
-0.407
-0.407
-0.427
-0.422
-0.375
-0.312
-0.26
-0.212
-0.175
-0.117
-0.052
0.025
0.058
0.085
0.102
0.11
0.092
0.083
0.077
0.085
0.092
0.115
0.135
0.155
0.163
0.163
0.175
0.175
0.18
0.17
0.17
0.17
0.175
0.19
0.212
0.233
0.255
0.273
0.297
0.325
0.357
0.385
0.415
0.45
0.475
0.48
0.472
0.455
0.427
0.39
0.35
0.31
0.255
0.195
0.115
0.05
-0.028
-0.072
-0.115
-0.13
-0.138
-0.13
-0.13
-0.135
-0.135
-0.13
-0.13
-0.122
-0.11
-0.092
-0.072
-0.06
-0.05
-0.045
-0.04
-0.037
-0.02
0.007
0.018
0.018
0.025
0.037
0.052
0.06
0.07
0.077
0.09
0.098
0.115
0.155
0.228
0.362
0.57
0.83
1.09
1.295
1.423
1.502
1.56
1.54
1.438
1.317
1.165
0.993
0.767
0.515
0.268
0.11
0.013
-0.077
-0.18
-0.297
-0.398
-0.468
-0.537
-0.598
-0.625
-0.603
-0.54
-0.5
-0.492
-0.495
-0.512
-0.52
-0.532
-0.54
-0.527
-0.505
-0.482
-0.468
-0.448
-0.427
-0.398
-0.37
-0.333
-0.297
-0.253
-0.212
-0.17
-0.13
-0.098
-0.065
-0.033
0.033
0.085
0.122
0.147
0.175
0.195
0.212
0.223
0.24
0.253
0.255
0.253
0.255
0.253
0.253
0.245
0.24
0.228
0.212
0.2
0.195
0.19
0.188
0.175
0.18
0.195
0.212
0.233
0.253
0.268
0.278
0.297
0.32
0.365
0.39
0.39
0.357
0.32
0.297
0.278
0.255
0.228
0.18
0.117
0.028
-0.04
-0.09
-0.117
-0.147
-0.17
-0.188
-0.195
-0.212
-0.233
-0.235
-0.233
-0.215
-0.203
-0.195
-0.195
-0.203
-0.212
-0.203
-0.19
-0.175
-0.158
-0.135
-0.122
-0.115
-0.11
-0.11
-0.115
-0.11
-0.115
-0.115
-0.105
-0.072
-0.025
0.037
0.117
0.253
0.45
0.71
0.993
1.22
1.373
1.48
1.545
1.515
1.397
1.235
1.052
0.84
0.603
0.33
0.092
-0.052
-0.117
-0.17
-0.253
-0.362
-0.468
-0.57
-0.677
-0.78
-0.82
-0.797
-0.743
-0.688
-0.667
-0.667
-0.677
-0.67
-0.655
-0.642
-0.655
-0.657
-0.655
-0.637
-0.623
-0.59
-0.557
-0.527
-0.505
-0.475
-0.443
-0.407
-0.375
-0.333
-0.287
-0.245
-0.203
-0.175
-0.135
-0.085
-0.04
0
0.028
0.07
0.09
0.098
0.115
0.125
0.142
0.155
0.158
0.158
0.155
0.15
0.138
0.125
0.125
0.138
0.142
0.142
0.142
0.147
0.163
0.19
0.22
0.247
0.26
0.28
0.31
0.35
0.383
0.398
0.39
0.37
0.343
0.318
0.292
0.273
0.24
0.182
0.115
0.028
-0.058
-0.105
-0.13
-0.15
-0.17
-0.195
-0.203
-0.215
-0.22
-0.22
-0.212
-0.2
-0.19
-0.188
-0.18
-0.17
-0.168
-0.163
-0.15
-0.135
-0.115
-0.11
-0.102
-0.09
-0.083
-0.072
-0.07
-0.06
-0.052
-0.04
-0.037
0.007
0.072
0.195
0.378
0.625
0.905
1.17
1.357
1.475
1.552
1.573
1.488
1.333
1.163
0.963
0.728
0.463
0.2
0.013
-0.09
-0.125
-0.168
-0.26
-0.378
-0.482
-0.585
-0.7
-0.785
-0.812
-0.772
-0.708
-0.65
-0.618
-0.603
-0.598
-0.585
-0.593
-0.598
-0.598
-0.585
-0.57
-0.552
-0.532
-0.512
-0.495
-0.475
-0.44
-0.398
-0.362
-0.325
-0.28
-0.245
-0.2
-0.163
-0.115
-0.065
-0.02
0.028
0.06
0.085
0.105
0.122
0.13
0.142
0.155
0.15
0.155
0.163
0.175
0.18
0.182
0.19
0.188
0.175
0.158
0.155
0.15
0.147
0.138
0.135
0.135
0.15
0.175
0.2
0.228
0.253
0.255
0.273
0.3
0.345
0.375
0.378
0.375
0.357
0.338
0.318
0.305
0.292
0.268
0.203
0.122
0.045
-0.025
-0.065
-0.077
-0.09
-0.102
-0.11
-0.105
-0.098
-0.09
-0.085
-0.083
-0.072
-0.07
-0.072
-0.072
-0.06
-0.045
-0.033
-0.025
0.005
0.02
0.025
0.025
0.028
0.033
0.04
0.05
0.06
0.065
0.09
0.125
0.215
0.362
0.58
0.853
1.133
1.37
1.52
1.617
1.67
1.65
1.54
1.39
1.208
1.015
0.787
0.547
0.333
0.228
0.195
0.142
0.028
-0.138
-0.297
-0.422
-0.545
-0.655
-0.71
-0.7
-0.642
-0.585
-0.547
-0.527
-0.515
-0.505
-0.492
-0.487
-0.492
-0.482
-0.472
-0.455
-0.443
-0.427
-0.398
-0.375
-0.345
-0.318
-0.28
-0.245
-0.212
-0.18
-0.138
-0.098
-0.052
-0.018
0.033
0.072
0.117
0.155
0.182
0.207
0.228
0.245
0.247
0.255
0.265
0.278
0.28
0.287
0.292
0.292
0.285
0.285
0.292
0.297
0.297
0.292
0.28
0.278
0.268
0.273
0.292
0.318
0.343
0.357
0.375
0.39
0.41
0.44
0.463
0.48
0.468
0.443
0.422
0.403
0.385
0.365
0.343
0.287
0.212
0.13
0.06
0.013
-0.028
-0.052
-0.072
-0.085
-0.085
-0.09
-0.098
-0.09
-0.085
-0.085
-0.09
-0.085
-0.077
-0.065
-0.058
-0.045
-0.04
-0.028
-0.025
0
0
0.005
0.005
0.007
0.013
0.018
0.025
0.04
0.072
0.13
0.228
0.398
0.645
0.935
1.202
1.41
1.535
1.625
1.663
1.6
1.47
1.295
1.105
0.91
0.662
0.407
0.207
0.098
0.058
0
-0.125
-0.278
-0.403
-0.52
-0.625
-0.715
-0.752
-0.715
-0.655
-0.598
-0.57
-0.547
-0.54
-0.532
-0.537
-0.527
-0.527
-0.52
-0.52
-0.505
-0.492
-0.472
-0.455
-0.427
-0.407
-0.378
-0.35
-0.312
-0.273
-0.233
-0.188
-0.147
-0.098
-0.05
0.005
0.037
0.07
0.102
0.13
0.15
0.18
0.195
0.207
0.215
0.223
0.228
0.233
0.235
0.24
0.245
0.245
0.233
0.228
0.223
0.223
0.212
0.207
0.215
0.228
0.24
0.26
0.292
0.318
0.343
0.352
0.385
0.41
0.435
0.44
0.435
0.415
0.395
0.375
0.357
0.333
0.297
0.235
0.155
0.083
0.018
-0.037
-0.07
-0.09
-0.102
-0.11
-0.115
-0.115
-0.117
-0.117
-0.125
-0.122
-0.117
-0.115
-0.115
-0.102
-0.098
-0.085
-0.083
-0.07
-0.065
-0.052
-0.045
-0.04
-0.037
-0.033
-0.033
-0.033
-0.02
0.005
0.028
0.083
0.19
0.362
0.603
0.877
1.15
1.353
1.48
1.552
1.585
1.52
1.377
1.21
1.02
0.787
0.532
0.273
0.077
-0.02
-0.045
-0.092
-0.19
-0.318
-0.435
-0.547
-0.667
-0.76
-0.797
-0.76
-0.7
-0.642
-0.61
-0.593
-0.59
-0.58
-0.58
-0.573
-0.573
-0.565
-0.552
-0.537
-0.515
-0.5
-0.472
-0.443
-0.422
-0.39
-0.352
-0.32
-0.297
-0.26
-0.215
-0.168
-0.117
-0.085
-0.04
0
0.033
0.06
0.083
0.098
0.122
0.13
0.147
0.158
0.163
0.158
0.158
0.158
0.163
0.158
0.155
0.158
0.158
0.155
0.142
0.142
0.135
0.125
0.125
0.135
0.15
0.182
0.203
0.223
0.24
0.265
0.287
0.318
0.333
0.338
0.325
0.31
0.292
0.278
0.26
0.24
0.203
0.142
0.058
-0.033
-0.085
-0.125
-0.15
-0.17
-0.182
-0.19
-0.195
-0.203
-0.2
-0.2
-0.19
-0.188
-0.17
-0.158
-0.142
-0.13
-0.125
-0.115
-0.102
-0.092
-0.085
-0.072
-0.065
-0.06
-0.058
-0.04
-0.033
-0.02
0
0.018
0.052
0.122
0.247
0.448
0.708
1
1.242
1.423
1.532
1.605
1.597
1.508
1.373
1.22
1.035
0.805
0.545
0.33
0.18
0.115
0.065
-0.04
-0.195
-0.357
-0.475
-0.578
-0.675
-0.743
-0.743
-0.69
-0.63
-0.585
-0.56
-0.552
-0.537
-0.532
-0.532
-0.527
-0.527
-0.525
-0.52
-0.5
-0.475
-0.46
-0.435
-0.403
-0.365
-0.338
-0.3
-0.26
-0.223
-0.18
-0.147
-0.102
-0.065
-0.02
0.025
0.06
0.092
0.125
0.147
0.168
0.18
0.19
0.195
0.207
0.22
0.233
0.233
0.233
0.233
0.235
0.228
0.22
0.212
0.207
0.2
0.19
0.19
0.19
0.2
0.215
0.24
0.268
0.297
0.312
0.325
0.35
0.383
0.41
0.417
0.417
0.407
0.385
0.365
0.352
0.333
0.297
0.228
0.155
0.083
0.028
-0.028
-0.052
-0.065
-0.077
-0.09
-0.092
-0.098
-0.098
-0.102
-0.102
-0.092
-0.09
-0.092
-0.09
-0.085
-0.085
-0.083
-0.072
-0.06
-0.052
-0.05
-0.045
-0.037
-0.033
-0.02
-0.02
0
0
0.007
0.028
0.072
0.163
0.32
0.552
0.83
1.113
1.345
1.488
1.577
1.625
1.593
1.48
1.327
1.163
0.955
0.708
0.44
0.215
0.098
0.04
-0.04
-0.15
-0.305
-0.427
-0.547
-0.662
-0.765
-0.82
-0.812
-0.755
-0.695
-0.65
-0.635
-0.63
-0.625
-0.623
-0.623
-0.623
-0.61
-0.593
-0.59
-0.585
-0.565
-0.545
-0.512
-0.487
-0.45
-0.415
-0.383
-0.35
-0.318
-0.285
-0.235
-0.19
-0.142
-0.098
-0.052
-0.025
0.013
0.04
0.06
0.083
0.092
0.115
0.135
0.142
0.147
0.155
0.155
0.158
0.155
0.158
0.155
0.155
0.138
0.135
0.125
0.125
0.125
0.13
0.15
0.175
0.203
0.228
0.247
0.265
0.285
0.31
0.338
0.352
0.343
0.32
0.3
0.285
0.265
0.245
0.212
0.147
0.065
-0.033
-0.092
-0.138
-0.163
-0.182
-0.2
-0.212
-0.212
-0.212
-0.22
-0.22
-0.22
-0.215
-0.215
-0.207
-0.195
-0.188
-0.18
-0.168
-0.163
-0.155
-0.15
-0.138
-0.13
-0.125
-0.122
-0.11
-0.102
-0.085
-0.083
-0.077
-0.058
0
0.083
0.235
0.427
0.703
1
1.242
1.417
1.515
1.577
1.56
1.468
1.327
1.157
0.955
0.72
0.45
0.203
0.045
-0.033
-0.09
-0.18
-0.318
-0.448
-0.552
-0.645
-0.748
-0.812
-0.807
-0.755
-0.695
-0.645
-0.623
-0.61
-0.603
-0.603
-0.593
-0.59
-0.578
-0.57
-0.557
-0.54
-0.52
-0.507
-0.48
-0.45
-0.415
-0.378
-0.343
-0.305
-0.265
-0.228
-0.188
-0.142
-0.098
-0.052
-0.018
0.037
0.072
0.102
0.122
0.147
0.158
0.175
0.17
0.18
0.18
0.18
0.182
0.19
0.19
0.195
0.195
0.195
0.188
0.182
0.175
0.168
0.17
0.175
0.18
0.195
0.228
0.255
0.278
0.285
0.3
0.338
0.378
0.403
0.41
0.39
0.365
0.338
0.325
0.32
0.31
0.273
0.207
0.125
0.045
-0.028
-0.065
-0.083
-0.098
-0.11
-0.122
-0.125
-0.125
-0.13
-0.135
-0.135
-0.135
-0.13
-0.125
-0.105
-0.09
-0.077
-0.07
-0.058
-0.052
-0.04
-0.045
-0.04
-0.033
-0.02
-0.02
-0.018
0
0.005
0.018
0.045
0.105
0.207
0.375
0.605
0.895
1.175
1.393
1.532
1.633
1.677
1.63
1.495
1.327
1.137
0.91
0.642
0.357
0.135
0.025
-0.033
-0.083
-0.168
-0.28
-0.39
-0.492
-0.59
-0.682
-0.723
-0.708
-0.65
-0.603
-0.56
-0.547
-0.54
-0.532
-0.527
-0.54
-0.532
-0.52
-0.505
-0.495
-0.48
-0.46
-0.43
-0.41
-0.378
-0.35
-0.312
-0.28
-0.247
-0.212
-0.163
-0.122
-0.085
-0.04
0.007
0.045
0.072
0.105
0.135
0.155
0.163
0.175
0.188
0.2
0.207
0.212
0.22
0.22
0.215
0.212
0.207
0.207
0.207
0.195
0.188
0.182
0.182
0.17
0.17
0.188
0.212
0.24
0.268
0.285
0.292
0.31
0.343
0.375
0.398
0.403
0.403
0.39
0.383
0.352
0.33
0.31
0.273
0.203
0.122
0.045
-0.028
-0.072
-0.117
-0.135
-0.158
-0.163
-0.163
-0.158
-0.168
-0.168
-0.168
-0.163
-0.147
-0.138
-0.13
-0.122
-0.122
-0.11
-0.098
-0.083
-0.077
-0.07
-0.06
-0.058
-0.045
-0.037
-0.028
-0.025
0.005
0.018
0.033
0.07
0.163
0.325
0.565
0.838
1.105
1.312
1.458
1.552
1.617
1.61
1.528
1.405
1.272
1.105
0.897
0.645
0.44
0.338
0.292
0.22
0.083
-0.115
-0.287
-0.43
-0.565
-0.677
-0.748
-0.743
-0.708
-0.662
-0.625
-0.605
-0.59
-0.573
-0.573
-0.585
-0.585
-0.573
-0.557
-0.54
-0.52
-0.512
-0.487
-0.455
-0.422
-0.398
-0.362
-0.325
-0.287
-0.255
-0.212
-0.17
-0.13
-0.09
-0.052
0
0.037
0.07
0.092
0.122
0.142
0.155
0.163
0.18
0.19
0.195
0.195
0.203
0.207
0.203
0.195
0.19
0.188
0.182
0.17
0.168
0.163
0.163
0.158
0.158
0.163
0.182
0.2
0.223
0.247
0.273
0.287
0.318
0.352
0.385
0.398
0.395
0.383
0.365
0.35
0.333
0.32
0.3
0.253
0.18
0.098
0.037
-0.025
-0.058
-0.072
-0.085
-0.092
-0.102
-0.105
-0.105
-0.11
-0.115
-0.115
-0.105
-0.102
-0.092
-0.092
-0.085
-0.083
-0.072
-0.072
-0.065
-0.058
-0.052
-0.05
-0.04
-0.04
-0.037
-0.033
-0.028
-0.02
0
0.025
0.077
0.182
0.365
0.613
0.897
1.163
1.357
1.47
1.552
1.58
1.515
1.385
1.222
1.035
0.797
0.532
0.255
0.06
-0.033
-0.065
-0.122
-0.22
-0.345
-0.448
-0.552
-0.657
-0.743
-0.775
-0.752
-0.7
-0.655
-0.618
-0.603
-0.593
-0.58
-0.578
-0.578
-0.58
-0.57
-0.557
-0.54
-0.527
-0.507
-0.482
-0.45
-0.422
-0.383
-0.345
-0.31
-0.28
